lambda (nm), E(eV), Cext [nm^2], Csca [nm^2]
250.,4.9628016,1345.8021721294472,107.30987075293203
251.,4.943029482071712,1348.4594116710225,107.28135533838406
252.,4.923414285714286,1351.1039492589782,107.26180336844732
253.,4.903954150197628,1353.6213752411845,107.23800401561074
254.,4.884647244094489,1355.8929044457275,107.1964004445691
255.,4.865491764705882,1357.795665785943,107.12313610098785
256.,4.8464859375,1358.6400625747588,106.95635602377322
257.,4.827628015564202,1358.683675573975,106.71504789097689
258.,4.808916279069767,1358.1493305092554,106.41530179615083
259.,4.790349034749035,1357.041274738646,106.05474376282038
260.,4.771924615384616,1355.369831181226,105.63162395754176
261.,4.753641379310344,1353.1511866787814,105.1447906229415
262.,4.7354977099236635,1350.4731055380116,104.59030445579795
263.,4.7174920152091255,1347.5057440712626,103.96277329556538
264.,4.699622727272728,1344.0582488614546,103.27449492842601
265.,4.681888301886793,1340.1232793065092,102.52715215170016
266.,4.664287218045113,1335.6925377535292,101.72241531333123
267.,4.64681797752809,1330.7569824378304,100.86196123111624
268.,4.629479104477612,1325.3070408523795,99.94749191831082
269.,4.612269144981412,1319.3328233617776,98.98075282225598
270.,4.595186666666667,1312.2074759891834,97.93523386393716
271.,4.578230258302583,1304.5097738766076,96.84033690360324
272.,4.561398529411765,1296.4118132477847,95.70637625746423
273.,4.54469010989011,1287.991998944337,94.53919711504308
274.,4.528103649635036,1279.3293493836445,93.34449921762923
275.,4.511637818181818,1270.5028238867324,92.12777916787172
276.,4.495291304347826,1261.5907309044057,90.8942849772124
277.,4.479062815884476,1252.9627440086317,89.64379741015823
278.,4.462951079136691,1244.5322587743515,88.38447241839876
279.,4.446954838709678,1236.1886004877813,87.12381381385153
280.,4.431072857142857,1227.9566163902591,85.86633880789445
281.,4.415303914590747,1219.8588485683417,84.61619522807881
282.,4.399646808510638,1211.915812236785,83.377190656148
283.,4.3841003533568905,1204.1462486495525,82.15282031947503
284.,4.36866338028169,1196.5673537069056,80.9462936367124
285.,4.353334736842106,1189.490411359515,79.78590488971822
286.,4.338113286713287,1182.9820898517644,78.67792731508189
287.,4.322997909407666,1176.6109937658748,77.58655746206124
288.,4.307987499999999,1170.3310470392933,76.50951519366316
289.,4.293080968858131,1164.09645282056,75.44462676700293
290.,4.27827724137931,1157.8617399181276,74.38982370057079
291.,4.263575257731959,1151.5818257156893,73.34314428750909
292.,4.248973972602739,1145.2120968594336,72.30273751479024
293.,4.234472354948806,1138.213123502182,71.24021733204084
294.,4.220069387755102,1130.2780200738916,70.14107497714998
295.,4.20576406779661,1122.2741085763223,69.05314025305023
296.,4.191555405405406,1114.270035355861,67.98045035968688
297.,4.1774424242424235,1106.3326699557083,66.9267085454812
298.,4.163424161073825,1098.5270810891393,65.89529766039722
299.,4.149499665551839,1090.9165771570767,64.88930066549221
300.,4.135668000000001,1083.5628087146226,63.911527046730605
301.,4.121928239202658,1076.5259303588853,62.96454420781819
302.,4.108279470198675,1071.1974948100756,62.12233120097927
303.,4.094720792079208,1066.4614213098328,61.32237609336331
304.,4.081251315789474,1062.0498603997569,60.54953977669657
305.,4.067870163934426,1057.913750924938,59.800704046187576
306.,4.054576470588235,1054.004667435895,59.07289839541724
307.,4.041369381107492,1050.27467394367,58.36327913731413
308.,4.028248051948053,1046.6762095674003,57.6691130875374
309.,4.015211650485437,1043.1620059282363,56.98776546119112
310.,4.00225935483871,1039.6850363279832,56.31669169491076
311.,3.989390353697749,1036.127536401896,55.650165938204275
312.,3.976603846153846,1031.1160448229975,54.92535201100042
313.,3.963899041533546,1026.1134314002963,54.2099288885592
314.,3.951275159235669,1021.1675416400857,53.50577426676223
315.,3.9387314285714283,1016.3255836222804,52.81466041039179
316.,3.9262670886075948,1011.63415428569,52.13826037492372
317.,3.913881388012618,1007.1392995059177,51.478156934401206
318.,3.9015735849056603,1002.8866076987492,50.83585397125368
319.,3.889342946708464,998.9213367772152,50.21279012622248
320.,3.87718875,995.2885744659535,49.61035455805066
321.,3.8651102803738313,992.8922518316245,49.06617328446945
322.,3.853106832298136,992.1716673428657,48.59758444817711
323.,3.841177708978328,991.8198869226886,48.14872493337109
324.,3.829322222222222,991.7683786887355,47.716399139272504
325.,3.8175396923076925,991.9480423451718,47.2974364779218
326.,3.805829447852761,992.2889441461867,46.88866945059109
327.,3.7941908256880734,992.7201245188475,46.486918716472026
328.,3.7826231707317075,993.1694814081983,46.088985154948624
329.,3.771125835866261,993.5637329302608,45.691649009258846
330.,3.759698181818182,993.8284631434614,45.291676239783925
331.,3.7483395770392747,993.8882546435284,44.88583220718662
332.,3.737049397590362,993.1492653472878,44.44705060206848
333.,3.725827027027027,990.6262166058128,43.9310175930579
334.,3.714671856287425,987.7958798503427,43.40668388719732
335.,3.7035832835820894,984.6825065071794,42.87565337808358
336.,3.692560714285714,981.3106422485828,42.33950918682789
337.,3.681603560830861,977.7050147926319,41.79980323900023
338.,3.67071124260355,973.8904300045579,41.25804718444112
339.,3.659883185840708,969.8916768836906,40.715704666011284
340.,3.649118823529412,965.7334418651391,40.17418492111832
341.,3.6384175953079176,961.4402327206858,39.63483768062496
342.,3.6277789473684208,957.0363122116902,39.09894931366578
343.,3.617202332361516,952.5213042141379,38.565136704671914
344.,3.6066872093023257,947.8769825322919,38.0301888661614
345.,3.596233043478261,943.1980079081937,37.50288225819746
346.,3.5858393063583813,938.5113553932457,36.98464641260845
347.,3.5755054755043223,933.8434571120578,36.47681788614536
348.,3.5652310344827587,929.2201891872481,35.980643628422996
349.,3.55501547277937,924.6668693235919,35.49728536799985
350.,3.5448582857142856,920.2082645471978,35.027824894313525
351.,3.5347589743589745,915.8686085877771,34.57327012280677
352.,3.5247170454545453,911.6716284009332,34.13456184205503
353.,3.514732011331445,907.6405793508159,33.712581054641134
354.,3.5048033898305087,903.7982886099071,33.3081568375995
355.,3.4949307042253523,900.7330037733502,32.95368923456828
356.,3.4851134831460673,898.4290401080241,32.64716579942081
357.,3.4753512605042016,896.3382703942293,32.35735694411442
358.,3.4656435754189947,894.4431025701554,32.08294494617731
359.,3.4559899721448466,892.7262037780993,31.822667828941736
360.,3.44639,891.1704669902358,31.575313009116908
361.,3.4368432132963993,889.758981645703,31.339711652837167
362.,3.427349171270718,888.4750081994966,31.114733688161728
363.,3.417907438016529,887.3019564986537,30.899283429508603
364.,3.408517582417583,886.2233679126796,30.692295775959437
365.,3.399179178082192,885.2229011530642,30.49273295087311
366.,3.3898918032786884,884.2843217211584,30.299581754875312
367.,3.3806550408719347,883.3914949245543,30.111851308118997
368.,3.3714684782608693,882.5283823997977,29.928571260795803
369.,3.362331707317073,881.5124895145044,29.74193125307457
370.,3.3532443243243244,880.4680395578052,29.55680951239369
371.,3.344205929919138,879.4176889663559,29.37387185049656
372.,3.335216129032258,878.3523026433501,29.192481649840737
373.,3.3262745308310993,877.2628873338787,29.01201846749947
374.,3.3173807486631013,876.1405976664754,28.83187802847567
375.,3.3085344,874.9767423428505,28.651472346538537
376.,3.2997351063829785,873.7627903763664,28.47022996372071
377.,3.2909824933687,872.4903772779138,28.287596299486427
378.,3.2822761904761903,871.1513110874323,28.10303410042733
379.,3.2736158311345647,869.7375781505518,27.916023981181073
380.,3.2650010526315785,868.2413485428424,27.726065047105614
381.,3.256431496062992,866.6549810489814,27.532675589091784
382.,3.2479068062827228,864.8025790606175,27.326267940796768
383.,3.239426631853786,862.3291492694037,27.08777696590815
384.,3.230990625,859.7581692731413,26.845662518119337
385.,3.2225984415584414,857.1016234245749,26.600540854784473
386.,3.2142497409326425,854.371359710594,26.353011715939175
387.,3.2059441860465117,851.5790755787992,26.10365712222994
388.,3.197681443298969,848.736306331401,25.853040416761
389.,3.18946118251928,845.8544160106873,25.601705539290368
390.,3.181283076923077,842.9445906922821,25.350176520285245
391.,3.173146803069054,840.0178340969876,25.098957181723666
392.,3.165052040816326,837.0849654287871,24.848531031172005
393.,3.1569984732824428,834.1566193454247,24.599361335555884
394.,3.1489857868020303,831.2432479688232,24.35189136115238
395.,3.141013670886076,828.3551248451347,24.10654476663808
396.,3.1330818181818185,825.5023507683131,23.863726136502862
397.,3.1251899244332493,822.6948613867186,23.62382164277076
398.,3.117337688442211,820.133057931322,23.394695253876325
399.,3.109524812030075,817.9994311399021,23.183302817455683
400.,3.101751,815.9191645856946,22.974789170933725
401.,3.0940159600997506,813.8888015677076,22.769001824474103
402.,3.0863194029850747,811.9049150878973,22.56579256119353
403.,3.0786610421836227,809.9641051550973,22.3650172387033
404.,3.071040594059406,808.0629962785546,22.166535609220094
405.,3.063457777777778,806.1982351492725,21.970211157357674
406.,3.055912315270936,804.3664885078755,21.77591095477801
407.,3.0484039312039313,802.564441198174,21.583505530940826
408.,3.0409323529411765,800.7887944060739,21.392868759244525
409.,3.033497310513447,799.0362640838473,21.20387775789703
410.,3.026098536585366,797.3035795602161,21.016412804899534
411.,3.018735766423358,795.5874823369887,20.830357266557165
412.,3.0114087378640773,793.8847250733099,20.64559753896336
413.,3.004117191283293,792.1920707588895,20.46202300192871
414.,2.996860869565217,790.3320538395648,20.274106750049324
415.,2.989639518072289,788.2498755074171,20.080257543299133
416.,2.982452884615385,786.1782461031763,19.887753487413352
417.,2.9753007194244603,784.1226549829838,19.696754387913614
418.,2.968182775119617,782.0885358286113,19.507413779842377
419.,2.9610988066825774,780.0812684123268,19.31987907290217
420.,2.954048571428572,778.1061809630053,19.134291725800807
421.,2.947031828978622,776.1685531211714,18.95078744775095
422.,2.940048341232228,774.2736194717994,18.769496425194276
423.,2.9330978723404257,772.4265736450792,18.59054357195616
424.,2.926180188679245,770.6325729769873,18.41404880118516
425.,2.919295058823529,768.8967437233787,18.240127317591735
426.,2.912442253521127,767.2241868234793,18.068889928671286
427.,2.9056215456674472,765.619984210994,17.90044337377583
428.,2.8988327102803733,764.0892056736748,17.734890670087005
429.,2.892075524475524,762.6369162650567,17.572331474740857
430.,2.8853497674418604,761.2681842751454,17.41286246255738
431.,2.878655220417633,760.1106387882456,17.260012973189752
432.,2.8719916666666663,759.5369588242245,17.124055558027486
433.,2.8653588914549655,759.0610186101245,16.991233001037696
434.,2.8587566820276495,758.6779595417303,16.861365336710527
435.,2.852184827586207,758.3829429712179,16.73427699420791
436.,2.845643119266055,758.1711406439487,16.609796352211372
437.,2.839131350114416,758.0377255211165,16.487755328723832
438.,2.832649315068493,757.9778629793414,16.36798900410648
439.,2.826196810933941,757.9867023819502,16.250335275883398
440.,2.819773636363636,758.0593690203578,16.13463454408353
441.,2.8133795918367346,758.1909564274818,16.020729426101315
442.,2.8070144796380094,758.3765190686797,15.908464500256393
443.,2.800678103837472,758.6110654191571,15.797686077412592
444.,2.79437027027027,758.8895514402329,15.688242000181612
445.,2.7880907865168543,759.206874470224,15.57998146938544
446.,2.781839461883408,759.5578675490846,15.472754897588226
447.,2.7756161073825503,759.9372941991711,15.366413789625629
448.,2.7694205357142856,760.3398436877311,15.26081065016636
449.,2.763252561247216,760.7601267998295,15.15579891842902
450.,2.757112,761.1926721533737,15.051232930251205
451.,2.75099866962306,761.6319230907845,14.94696790776445
452.,2.7449123893805307,761.1255323502098,14.813287252574844
453.,2.7388529801324504,760.4354840216563,14.674485566604766
454.,2.732820264317181,759.7573493296018,14.536741583657484
455.,2.7268140659340663,759.1016724037736,14.400402004215083
456.,2.720834210526316,758.4790909334371,14.265804949581234
457.,2.714880525164114,757.9003452756748,14.133280371907539
458.,2.7089528384279475,757.3762893368541,14.003150581830411
459.,2.703050980392157,756.9179033533446,13.875730891938797
460.,2.6971747826086956,756.5363087108545,13.751330374978886
461.,2.6913240780911063,756.2427849566205,13.630252736528842
462.,2.6854987012987013,756.0487891755703,13.512797302853048
463.,2.6796984881209505,755.9659779208811,13.399260125784926
464.,2.673923275862069,756.0062319113897,13.289935207798143
465.,2.6681729032258064,756.1816837338815,13.18511585193678
466.,2.6624472103004293,756.5047488176765,13.085096142999086
467.,2.656746038543897,756.9881599831,12.990172568344688
468.,2.651069230769231,757.6450059049902,12.900645788953899
469.,2.6454166311300638,758.4887738784123,12.816822573957946
470.,2.6397880851063826,759.5333973272076,12.739017914835886
471.,2.6341834394904455,760.7933085582733,12.66755733890846
472.,2.628602542372881,762.5514851649291,12.607478364598292
473.,2.623045243128964,765.3697467923579,12.568713591321595
474.,2.617511392405063,768.4639583384231,12.537629726260636
475.,2.612000842105263,771.8403367419897,12.514470709557889
476.,2.6065134453781513,775.5057661138327,12.499504192995444
477.,2.6010490566037734,779.4678272384555,12.493023222108238
478.,2.595607531380753,783.7348296776794,12.495348114773618
479.,2.5901887265135697,788.3158465683498,12.50682855680726
480.,2.5847925,793.2207521940887,12.527845937560516
481.,2.579418711018711,798.4602623916066,12.558815951242902
482.,2.5740672199170125,804.0459778234138,12.600191492701075
483.,2.5687378881987577,809.9904301081455,12.652465879690839
484.,2.5634305785123965,816.3071307435144,12.716176437290835
485.,2.5581451546391754,823.0106226806797,12.791908484028758
486.,2.5528814814814815,830.1165343069115,12.880299763515186
487.,2.5476394250513352,837.6416354584699,12.982045369873203
488.,2.5424188524590163,845.603894908448,13.097903219960788
489.,2.537219631901841,854.0225385433304,13.22870013021058
490.,2.5320416326530615,862.91810714211,13.375338560701783
491.,2.526884725050916,872.3125122844642,13.538804093608718
492.,2.5217487804878047,882.2290884154208,13.720173717091201
493.,2.5166336713995943,892.6926384532743,13.920624988523956
494.,2.5115392712550606,903.7294695065493,14.14144615200454
495.,2.506465454545454,915.3674142163658,14.38404728336117
496.,2.5014120967741937,927.6358319014547,14.64997253004643
497.,2.4963790744466805,942.4428646713143,15.008739735442473
498.,2.4913662650602406,958.7543095730133,15.425706627362235
499.,2.4863735470941886,975.8648907927669,15.877006999865
500.,2.4814008,993.7829907726135,16.364444919294055
501.,2.4764479041916165,1012.5144140325726,16.889919540864234
502.,2.471514741035856,1032.0616041493106,17.455414915035753
503.,2.466601192842942,1052.4227201584824,18.062985451149757
504.,2.461707142857143,1073.5905545055664,18.714735983887106
505.,2.456832475247525,1095.551274747074,19.412795218869107
506.,2.451977075098814,1118.2829723899883,20.159281160261216
507.,2.4471408284023672,1141.7540050384835,20.956256957147534
508.,2.4423236220472444,1165.9211230071403,21.80567546442433
509.,2.4375253438113944,1190.7273795070446,22.7093107236274
510.,2.432745882352941,1216.099835288765,23.66867456493195
511.,2.4279851272015653,1241.947085196737,24.684916660561168
512.,2.42324296875,1268.1566564263446,25.758706681659337
513.,2.418519298245614,1294.592357221805,26.890097797155065
514.,2.413814007782101,1321.0916908041484,28.07837168530992
515.,2.409126990291262,1347.4634922975818,29.321866589718443
516.,2.4044581395348836,1373.4859950572074,30.617791814100546
517.,2.3998073500967116,1398.9055842105674,31.962034456233464
518.,2.3951745173745174,1423.4365443775082,33.34896711379093
519.,2.3905595375722544,1446.762147797024,34.77126864223872
520.,2.385962307692308,1468.5374480783084,36.21977356257155
521.,2.381382725527831,1488.3941307691484,37.68336899301808
522.,2.376820689655172,1500.1991409944815,38.83536224842838
523.,2.372276099426386,1506.9242177461022,39.810333609426095
524.,2.3677488549618317,1510.9105131717995,40.73009884431647
525.,2.363238857142857,1512.0339531772788,41.586283701857354
526.,2.3587460076045628,1510.2020641138267,42.37099144741282
527.,2.3542702087286527,1505.357861037662,43.0770093913627
528.,2.349811363636364,1497.482744718695,43.698004074700314
529.,2.3453693761814742,1486.598205910517,44.22869496374375
530.,2.3409441509433964,1472.766200151121,44.66499727924193
531.,2.336535593220339,1456.088136181344,45.004126178643084
532.,2.3321436090225567,1436.7025085154698,45.24465680268438
533.,2.3277681050656662,1414.781291062631,45.38653747490962
534.,2.323408988764045,1390.525285229155,45.431056327254595
535.,2.3190661682242992,1364.1586751306368,45.38076451468733
536.,2.314739552238806,1335.9230792182743,45.23936169556902
537.,2.3104290502793297,1306.071399533404,45.01155136990041
538.,2.306134572490706,1274.8617577618559,44.702874849380024
539.,2.3018560296846013,1242.5517747408742,44.31953304263573
540.,2.2975933333333334,1209.393402439598,43.86820492855897
541.,2.2933463955637707,1175.6284609775432,43.355870684478184
542.,2.2891151291512917,1141.4849742257252,42.789646102604955
543.,2.284899447513812,1107.1743414077696,42.17663335201552
544.,2.2806992647058824,1072.8893330260403,41.52379149884294
545.,2.2765144954128442,1038.8028599917798,40.837828630304216
546.,2.272345054945055,1005.0674361633814,40.12511604582394
547.,2.2681908592321753,971.8152364586837,39.39162384637372
548.,2.264051824817518,939.1586442424875,38.642876398519505
549.,2.259927868852459,907.224982191551,37.88669371084845
550.,2.255818909090909,877.8006900949655,37.27536510048049
551.,2.2517248638838474,848.9075449820804,36.6524885123607
552.,2.247645652173913,820.5990026636692,36.020812433199666
553.,2.243581193490054,792.9198022513804,35.382878115226845
554.,2.239531407942238,765.9065528989221,34.741018837701674
555.,2.2354962162162164,739.5883557807755,34.09736229239623
556.,2.2314755395683457,713.9874432375454,33.45383553482734
557.,2.227469299820467,689.1198199301056,32.8121719807115
558.,2.223477419354839,664.9958936415587,32.17391997374782
559.,2.2194998211091232,641.621085963545,31.540452502522474
560.,2.2155364285714283,618.9964154488725,30.912977697938942
561.,2.2115871657754007,597.1190478775596,30.292549795686313
562.,2.2076519572953734,575.9828100594107,29.680080299051134
563.,2.2037307282415632,555.578665089367,29.076349124641894
564.,2.199823404255319,535.8951481978053,28.482015556530605
565.,2.195929911504425,516.918763320207,27.897628872548907
566.,2.1920501766784453,498.6343412750949,27.323638539886062
567.,2.188184126984127,481.0253610143657,26.760403905822645
568.,2.184331690140845,464.0742358236746,26.208203333666507
569.,2.1804927943760983,447.7625666289173,25.667242754068827
570.,2.176667368421053,432.0713647324571,25.137663618304643
571.,2.17285534150613,416.9812463813033,24.619550253222453
572.,2.1690566433566434,402.47260157832665,24.11293662783853
573.,2.1652712041884814,388.5257395028739,23.617812549363137
574.,2.161498954703833,375.12101282310635,23.134129312200788
575.,2.1577398260869565,362.2389230703114,22.661804827494507
576.,2.1539937499999997,349.86020911471564,22.200728263399743
577.,2.1502606585788557,337.9659206406074,21.750764227747936
578.,2.1465404844290656,326.5374783716995,21.311756525326604
579.,2.1428331606217617,315.55672265015585,20.88353152186099
580.,2.139138620689655,305.00595182805824,20.465901146101658
581.,2.1354567986230637,294.86795179067457,20.058665560340526
582.,2.1317876288659794,285.1260177985611,19.661615528313988
