lambda (nm), E(eV), Cext [nm^2], Csca [nm^2]
250.,4.9628016,1133.225053837316,72.07545849695127
251.,4.943029482071712,1128.4373710199911,71.05047849848737
252.,4.923414285714286,1123.3768608322207,70.00897390927759
253.,4.903954150197628,1118.0621657887953,68.95291616388
254.,4.884647244094489,1112.5126507522916,67.88422803992768
255.,4.865491764705882,1106.7482507462812,66.80476890963625
256.,4.8464859375,1100.894078658872,65.7177324231855
257.,4.827628015564202,1094.8657395463556,64.62325269746633
258.,4.808916279069767,1088.653396813347,63.52256159908172
259.,4.790349034749035,1082.258515457097,62.41701716784695
260.,4.771924615384616,1075.6822898041287,61.30794282516134
261.,4.753641379310344,1068.9257108052345,60.19663115523352
262.,4.7354977099236635,1062.076460515362,59.09914537277518
263.,4.7174920152091255,1055.1686486523408,58.02217591221591
264.,4.699622727272728,1048.0474752886748,56.94038697940433
265.,4.681888301886793,1040.688567368061,55.85083685025389
266.,4.664287218045113,1033.0687915810668,54.75086700308876
267.,4.64681797752809,1025.1661684907378,53.638096006345684
268.,4.629479104477612,1016.9597658272884,52.510413596214235
269.,4.612269144981412,1008.3536311852934,51.35862883122051
270.,4.595186666666667,998.7484673684081,50.126326331723874
271.,4.578230258302583,988.8907776864414,48.88691311665082
272.,4.561398529411765,978.8445491518839,47.64636790103256
273.,4.54469010989011,968.671011014254,46.410081577392155
274.,4.528103649635036,958.4285318631811,45.182875336162994
275.,4.511637818181818,948.1725662453398,43.969027128166964
276.,4.495291304347826,937.9556441217127,42.77230480791163
277.,4.479062815884476,928.682485405619,41.658851383601444
278.,4.462951079136691,919.5731120912807,40.56834206127923
279.,4.446954838709678,910.4845634290434,39.49001754559765
280.,4.431072857142857,901.3697252352704,38.42061277241191
281.,4.415303914590747,892.1818798388689,37.35718943285013
282.,4.399646808510638,882.8746725926054,36.297120960038775
283.,4.3841003533568905,873.4021088182989,35.238081783336156
284.,4.36866338028169,863.7185825701164,34.178040333222306
285.,4.353334736842106,853.8797223080749,33.12875928870566
286.,4.338113286713287,843.8022189953857,32.082290366237366
287.,4.322997909407666,833.3598870055225,31.02633031985135
288.,4.307987499999999,822.4923501088624,29.958251744713166
289.,4.293080968858131,811.1385040345161,28.875879514378028
290.,4.27827724137931,799.2365059576277,27.777505653104715
291.,4.263575257731959,786.7238277493727,26.661907682902374
292.,4.248973972602739,773.5373866153374,25.528369942267968
293.,4.234472354948806,758.9576287495173,24.34270833957356
294.,4.220069387755102,743.2164921057047,23.122781183981715
295.,4.20576406779661,726.7880937366276,21.897384677450965
296.,4.191555405405406,709.6956438727701,20.671447562030206
297.,4.1774424242424235,691.9545278675082,19.449625690587517
298.,4.163424161073825,673.5720705237716,18.236358351136865
299.,4.149499665551839,654.5474145395322,17.03593629845356
300.,4.135668000000001,634.8715254924017,15.852579442077408
301.,4.121928239202658,614.2900221493749,14.677685846449297
302.,4.108279470198675,590.8248056630188,13.420190987713536
303.,4.094720792079208,566.660732938064,12.212357851355865
304.,4.081251315789474,541.9515775866176,11.066270199074795
305.,4.067870163934426,516.8605271204966,9.99215048926818
306.,4.054576470588235,491.55901379798934,8.998346809246035
307.,4.041369381107492,466.22504217955526,8.091356925950112
308.,4.028248051948053,441.04118051943647,7.275890221477326
309.,4.015211650485437,416.19236799094784,6.554965508515638
310.,4.00225935483871,391.86366247114836,5.930040358603624
311.,3.989390353697749,367.63419867579086,5.380480786912103
312.,3.976603846153846,343.0127441367697,4.883005735110909
313.,3.963899041533546,319.7338155665626,4.488359393883541
314.,3.951275159235669,298.0533547314217,4.195433628855996
315.,3.9387314285714283,278.203023407215,4.002334793324429
316.,3.9262670886075948,260.3895942134105,3.906844866740556
317.,3.913881388012618,244.7929080785817,3.9068482918987355
318.,3.9015735849056603,231.5618117549809,4.000736031879432
319.,3.889342946708464,220.80755687786575,4.187808064772164
320.,3.87718875,212.5942371487304,4.468707564486199
321.,3.8651102803738313,212.89463320575916,5.067310049836699
322.,3.853106832298136,218.6320904238199,5.942508633299014
323.,3.841177708978328,224.76908235177498,6.953152684569533
324.,3.829322222222222,230.3824041201314,8.098680233589898
325.,3.8175396923076925,234.56527491065637,9.380417490709704
326.,3.805829447852761,236.4625541842337,10.802591686322245
327.,3.7941908256880734,235.31074681563405,12.373129766224173
328.,3.7826231707317075,230.48398299944952,14.10392662959769
329.,3.771125835866261,221.548438381794,16.010292555234123
330.,3.759698181818182,208.32789639232968,18.109338688480307
331.,3.7483395770392747,190.98177690407107,20.417128665322053
332.,3.737049397590362,178.0845004815528,22.455815306591617
333.,3.725827027027027,174.2267668873311,24.109052904768223
334.,3.714671856287425,173.17891297124393,25.83507971340165
335.,3.7035832835820894,175.31757941688628,27.643746058894468
336.,3.692560714285714,180.92894507897395,29.54372826399158
337.,3.681603560830861,190.20633821869782,31.54285722966181
338.,3.67071124260355,203.2463184298743,33.64856683621319
339.,3.659883185840708,220.04364936686713,35.86848382667081
340.,3.649118823529412,240.48596352881302,38.21119004694439
341.,3.6384175953079176,264.3490831398868,40.68719198491633
342.,3.6277789473684208,291.29383390229896,43.310133116593114
343.,3.617202332361516,312.6702078521452,46.30195283093749
344.,3.6066872093023257,326.8776630718911,49.74857964669604
345.,3.596233043478261,341.7112521891585,53.4918564456123
346.,3.5858393063583813,357.2327436347853,57.55844674625838
347.,3.5755054755043223,373.51256130079855,61.977524689480106
348.,3.5652310344827587,390.6313676461686,66.78098563412348
349.,3.55501547277937,408.68202526736206,72.00366441644104
350.,3.5448582857142856,427.7720506797801,77.68355784981887
351.,3.5347589743589745,448.0267158935933,83.86204655433689
352.,3.5247170454545453,469.59301159453446,90.58410929463565
353.,3.514732011331445,492.6447646634879,97.8985205753112
354.,3.5048033898305087,517.3893030084732,105.85801918578439
355.,3.4949307042253523,544.0573554409223,114.15907223554541
356.,3.4851134831460673,572.8824055216977,123.04575164649096
357.,3.4753512605042016,604.1923831611858,132.6669783066369
358.,3.4656435754189947,638.3942052666166,143.10156728452574
359.,3.4559899721448466,675.9925484625167,154.440642360955
360.,3.44639,717.6164697184631,166.79010392731084
361.,3.4368432132963993,764.0534895157904,180.27366006400544
362.,3.427349171270718,816.2796693399714,195.0365231902404
363.,3.417907438016529,875.4198887961072,211.24981574442603
364.,3.408517582417583,942.4802595463805,229.11554283302928
365.,3.399179178082192,1017.6035468206078,248.87166683427677
366.,3.3898918032786884,1098.6774426441561,270.7969648537845
367.,3.3806550408719347,1180.1195594082933,295.218353979708
368.,3.3714684782608693,1255.1201611994472,322.69814003027847
369.,3.362331707317073,1323.4147427680375,355.3213022686974
370.,3.3532443243243244,1389.4964208620713,392.46242884771607
371.,3.344205929919138,1465.357369783885,434.98663594547463
372.,3.335216129032258,1559.7216002388996,483.94124442097274
373.,3.3262745308310993,1677.3282387287595,540.603403150047
374.,3.3173807486631013,1821.357425142405,606.5542146040342
375.,3.3085344,1995.311063267492,683.7733671527147
376.,3.2997351063829785,2203.9575659722195,774.7594564061362
377.,3.2909824933687,2453.8538880529354,882.6861708583829
378.,3.2822761904761903,2753.804539309557,1011.6060025838794
379.,3.2736158311345647,3115.4188593941944,1166.7130388280907
380.,3.2650010526315785,3553.8255199747828,1354.6723519153
381.,3.256431496062992,4088.536062928032,1584.0086550765336
382.,3.2479068062827228,4739.765645686192,1859.4556051970942
383.,3.239426631853786,5531.032176059244,2189.0179531393737
384.,3.230990625,6496.076565310848,2590.0832056901295
385.,3.2225984415584414,7666.013345116647,3075.434653272495
386.,3.2142497409326425,9063.323928602773,3654.269491385105
387.,3.2059441860465117,10683.663472656075,4324.703169999594
388.,3.197681443298969,12465.395493847376,5061.229731350851
389.,3.18946118251928,14252.489657849062,5799.473636812207
390.,3.181283076923077,15778.099019581728,6429.494252405628
391.,3.173146803069054,16717.42492504495,6817.640716154371
392.,3.165052040816326,16828.058150686633,6864.373465055562
393.,3.1569984732824428,16091.76284491748,6562.554516398218
394.,3.1489857868020303,14722.861112045017,6000.730735671982
395.,3.141013670886076,13036.105519374709,5308.623549851042
396.,3.1330818181818185,11303.55987246702,4598.217523326651
397.,3.1251899244332493,9693.405663677515,3938.6442311529026
398.,3.117337688442211,8237.466359937316,3348.323110349173
399.,3.109524812030075,6979.751979519698,2841.149662082938
400.,3.101751,5936.931587975141,2420.2026339060403
401.,3.0940159600997506,5079.43457373654,2073.791648466449
402.,3.0863194029850747,4375.34421779547,1789.1870516344397
403.,3.0786610421836227,3795.707247609364,1554.7937290183013
404.,3.071040594059406,3316.170225543956,1360.834111868982
405.,3.063457777777778,2916.98981920951,1199.36735826937
406.,3.055912315270936,2582.444182839622,1064.0613537850888
407.,3.0484039312039313,2300.1086497409137,949.9063172892104
408.,3.0409323529411765,2060.1806393778247,852.9459629895827
409.,3.033497310513447,1854.9120520676759,770.0506109758638
410.,3.026098536585366,1678.1545630716191,698.7349831116039
411.,3.018735766423358,1525.0040998001966,637.0154910838651
412.,3.0114087378640773,1391.526139356251,583.2998159778099
413.,3.004117191283293,1274.5444681216236,536.3019025378247
414.,2.996860869565217,1171.548497011433,496.0001967791597
415.,2.989639518072289,1080.113842787738,460.6621983377522
416.,2.982452884615385,998.5237196729773,429.1415973347056
417.,2.9753007194244603,925.4314550383265,400.90165928142164
418.,2.968182775119617,859.714499377142,375.49631635991443
419.,2.9610988066825774,800.4314350359776,352.55256955202407
420.,2.954048571428572,746.7881971326892,331.75670167808045
421.,2.947031828978622,698.1113492678203,312.84339992090764
422.,2.940048341232228,653.826799426608,295.58711549791786
423.,2.9330978723404257,613.442739627987,279.7951555290395
424.,2.926180188679245,576.5358866924031,265.30212522950586
425.,2.919295058823529,542.7403196826072,251.9654296582006
426.,2.912442253521127,511.7383726312326,239.66161213389017
427.,2.9056215456674472,483.253163819838,228.28335734870458
428.,2.8988327102803733,457.04243572128905,217.7370256520504
429.,2.892075524475524,432.89345044583376,207.94061419135107
430.,2.8853497674418604,410.6187397433364,198.82206293516802
431.,2.878655220417633,390.73904665625247,190.3535234124488
432.,2.8719916666666663,373.02083222958856,182.47306593861285
433.,2.8653588914549655,356.60976934013894,175.0930090421096
434.,2.8587566820276495,341.38132319450057,168.16885081865817
435.,2.852184827586207,327.2251571292223,161.66099706738052
436.,2.845643119266055,314.043243666149,155.5341274360867
437.,2.839131350114416,301.7482603494583,149.75665478449721
438.,2.832649315068493,290.26222276559804,144.30026249932217
439.,2.826196810933941,279.51531583779786,139.13950723127647
440.,2.819773636363636,269.4448914647639,134.25147673057631
441.,2.8133795918367346,259.99460619958427,129.61549424378566
442.,2.8070144796380094,251.11367721899214,125.21286238667787
443.,2.800678103837472,242.7562385343414,121.0266405920916
444.,2.79437027027027,234.8807824145013,117.04145120149424
445.,2.7880907865168543,227.449673462736,113.24331006577532
446.,2.781839461883408,220.42872482026496,109.61947817783135
447.,2.7756161073825503,213.78682764377263,106.15833140308803
448.,2.7694205357142856,207.49562638914838,102.84924582533719
449.,2.763252561247216,201.52923358338916,99.68249660099866
450.,2.757112,195.86397872386482,96.64916852879361
451.,2.75099866962306,190.4739038573429,93.72734068957925
452.,2.7449123893805307,185.31030047175898,90.80738967706682
453.,2.7388529801324504,180.39722542800757,88.01273969597717
454.,2.732820264317181,175.71690497204125,85.33733529758057
455.,2.7268140659340663,171.25289554931408,82.77541928772543
456.,2.720834210526316,166.98998318068539,80.32152063339989
457.,2.714880525164114,162.9140897624376,77.97044234186365
458.,2.7089528384279475,159.01218594518897,75.7172494195419
459.,2.703050980392157,155.27221023676256,73.55725699697302
460.,2.6971747826086956,151.68299397109658,71.48601868832516
461.,2.6913240780911063,148.23419178805742,69.49931523897976
462.,2.6854987012987013,144.91621727585184,67.59314350199882
463.,2.6796984881209505,141.72018343783486,65.76370577366713
464.,2.673923275862069,138.63784765781944,64.00739950940577
465.,2.6681729032258064,135.66156085200197,62.320807433988136
466.,2.6624472103004293,132.7842205105321,60.700688053878025
467.,2.656746038543897,129.99922734745837,59.14396657452753
468.,2.651069230769231,127.30044529348444,57.64772622139666
469.,2.6454166311300638,124.68216458184408,56.20919996018908
470.,2.6397880851063826,122.13906769312204,54.8257626092021
471.,2.6341834394904455,119.6661979399372,53.494923334639864
472.,2.628602542372881,117.13859976340724,52.24081382726405
473.,2.623045243128964,114.59721053896628,51.04989493020351
474.,2.617511392405063,112.12117256021212,49.90153119698943
475.,2.612000842105263,109.70849748502984,48.79348894579491
476.,2.6065134453781513,107.35729335730039,47.72368438377253
477.,2.6010490566037734,105.0657590751997,46.690171579007924
478.,2.595607531380753,102.8321791783942,45.691131553440876
479.,2.5901887265135697,100.6549189352323,44.72486237825003
480.,2.5847925,98.53241971190724,43.78977016714856
481.,2.579418711018711,96.46319460650156,42.88436087519516
482.,2.5740672199170125,94.44582433172364,42.007232821312684
483.,2.5687378881987577,92.4789533311231,41.157069861974776
484.,2.5634305785123965,90.56128611439506,40.33263515162159
485.,2.5581451546391754,88.69158379838554,39.532765432481504
486.,2.5528814814814815,86.86866084112721,38.75636580271896
487.,2.5476394250513352,85.09138195715465,38.00240491732831
488.,2.5424188524590163,83.3586592030672,37.26991058103776
489.,2.537219631901841,81.66944922305665,36.55796569677178
490.,2.5320416326530615,80.02275064480523,35.86570453699651
491.,2.526884725050916,78.41760161682984,35.19230930863361
492.,2.5217487804878047,76.85307747893435,34.537006985191795
493.,2.5166336713995943,75.32828855803128,33.8990663824151
494.,2.5115392712550606,73.84237808212359,33.27779545608891
495.,2.506465454545454,72.39452020573499,32.67253880274248
496.,2.5014120967741937,70.9846188690178,32.08187684978243
497.,2.4963790744466805,69.61761836152294,31.49910505918001
498.,2.4913662650602406,68.28648648420143,30.931106341490953
499.,2.4863735470941886,66.99040171129343,30.377391094117044
500.,2.4814008,65.7285637234806,29.83748986030407
501.,2.4764479041916165,64.50019275197084,29.31095233893394
502.,2.471514741035856,63.3045289451492,28.797346450751405
503.,2.466601192842942,62.1408317570185,28.296257457374296
504.,2.461707142857143,61.00837935671481,27.807287129706445
505.,2.456832475247525,59.90646805835055,27.330052962606697
506.,2.451977075098814,58.83441177050846,26.86418743289732
507.,2.4471408284023672,57.791541464663894,26.409337297996455
508.,2.4423236220472444,56.77720466189855,25.965162932651694
509.,2.4375253438113944,55.790764937227216,25.531337701424583
510.,2.432745882352941,54.831601440923976,25.1075473647395
511.,2.4279851272015653,53.899108436223294,24.69348951645888
512.,2.42324296875,52.99269485280835,24.28887305108522
513.,2.418519298245614,52.1117838555056,23.89341765881725
514.,2.413814007782101,51.255812427640365,23.506853346808285
515.,2.409126990291262,50.424230968503586,23.12891998508086
516.,2.4044581395348836,49.61650290441996,22.759366875656944
517.,2.3998073500967116,48.83210431291398,22.397952343555474
518.,2.3951745173745174,48.070523559490844,22.04444334839556
519.,2.3905595375722544,47.33126094657169,21.698615115427327
520.,2.385962307692308,46.613828374123464,21.360250784885647
521.,2.381382725527831,45.92655880211792,21.02873608657414
522.,2.376820689655172,45.338129616435346,20.70073725729776
523.,2.372276099426386,44.767231254927836,20.379809748187444
524.,2.3677488549618317,44.21277727148635,20.065787177138656
525.,2.363238857142857,43.67373514539234,19.7585067104999
526.,2.3587460076045628,43.149123815066496,19.457809042009025
527.,2.3542702087286527,42.63801129793609,19.163538366417164
528.,2.349811363636364,42.139512395364385,18.875542348375077
529.,2.3453693761814742,41.65278648135544,18.593672087108626
530.,2.3409441509433964,41.177035373575265,18.317782077372666
531.,2.336535593220339,40.71150128505572,18.04773016713134
532.,2.3321436090225567,40.255464854820424,17.783377512377726
533.,2.3277681050656662,39.808243255564136,17.524588529471636
534.,2.323408988764045,39.36918837641775,17.27123084534369
535.,2.3190661682242992,38.9376850787763,17.023175245883987
536.,2.314739552238806,38.51314952309754,16.780295622806932
537.,2.3104290502793297,38.09502756455145,16.542468919258642
538.,2.306134572490706,37.68279321536824,16.30957507441018
539.,2.3018560296846013,37.27594717172794,16.08149696725763
540.,2.2975933333333334,36.874015403017665,15.858120359830748
541.,2.2933463955637707,36.47654780130318,15.639333839992842
542.,2.2891151291512917,36.083116888864495,15.425028763997641
543.,2.284899447513812,35.69331658166913,15.215099198952888
544.,2.2806992647058824,35.30676100668572,15.009441865325856
545.,2.2765144954128442,34.92308337096546,14.80795607961248
546.,2.272345054945055,34.54193488046262,14.610543697278985
547.,2.2681908592321753,34.162983706595845,14.417109056074262
548.,2.264051824817518,33.785913998603625,14.227558919799518
549.,2.259927868852459,33.36908069146989,14.043701311321195
550.,2.255818909090909,32.89270875183231,13.86627996040733
551.,2.2517248638838474,32.41951941551355,13.692291668721262
552.,2.247645652173913,31.949815528959526,13.52163131316423
553.,2.243581193490054,31.483883923524083,13.354198028955246
554.,2.239531407942238,31.02199636136982,13.189895002323503
555.,2.2354962162162164,30.564410411354643,13.028629275015454
556.,2.2314755395683457,30.11137026011259,12.87031155984827
557.,2.227469299820467,29.663107463116376,12.71485606659631
558.,2.223477419354839,29.219841640138274,12.562180337549112
559.,2.2194998211091232,28.781781119176557,12.41220509212675
560.,2.2155364285714283,28.349123532599425,12.2648540799815
561.,2.2115871657754007,27.922056368972875,12.120053942055742
562.,2.2076519572953734,27.500757483771288,11.977734079102442
563.,2.2037307282415632,27.085395571932764,11.837826527209263
564.,2.199823404255319,26.67613060499589,11.700265839898481
565.,2.195929911504425,26.273114235354974,11.564988976404468
566.,2.1920501766784453,25.876490169982628,11.431935195757772
567.,2.188184126984127,25.486394515800704,11.301045956328721
568.,2.184331690140845,25.102956098721144,11.17226482050817
569.,2.1804927943760983,24.726296758235293,11.045537364223179
570.,2.176667368421053,24.35653161930128,10.920811091005879
571.,2.17285534150613,23.99376934315005,10.798035350352283
572.,2.1690566433566434,23.63811235852609,10.677161260124441
573.,2.1652712041884814,23.289657074770606,10.558141632765855
574.,2.161498954703833,22.948494078062144,10.440930905114199
575.,2.1577398260869565,22.614708312042247,10.325485071609583
576.,2.1539937499999997,22.288379243968606,10.211761620708991
577.,2.1502606585788557,21.969581017468872,10.099719474329927
578.,2.1465404844290656,21.658382592896963,9.989318930156497
579.,2.1428331606217617,21.354847876225268,9.880521606652259
580.,2.139138620689655,21.059035837356202,9.773290390633413
581.,2.1354567986230637,20.77100061867215,9.667589387264886
582.,2.1317876288659794,20.490791634597144,9.563383872349977
